loss,accuracy,val_loss,val_accuracy,RRMSE,CC,SNR,SSIM
0.19081206619739532,0.0889236256480217,0.2128753513097763,0.17499999701976776,4.1818191899988815,0.5509746434409295,2.1029854268433796,0.11638254730535577
0.1074741929769516,0.1856185793876648,0.18201683461666107,0.23107142746448517,4.388099170005244,0.5579699427455193,2.3683891956748995,0.14167538557925674
0.08532528579235077,0.23405538499355316,0.16450291872024536,0.2678571343421936,4.8102358718190015,0.5723190219235649,2.5967432003159425,0.16678993094577313
0.07322175800800323,0.2659669518470764,0.15651047229766846,0.2601785659790039,4.757061290569307,0.5739920865878491,2.625720711905321,0.16732695363031605
0.06572926044464111,0.28881198167800903,0.15506501495838165,0.27767857909202576,4.33855985694292,0.5743901686131139,2.6605000526732154,0.17459331744588136
0.060226645320653915,0.30681106448173523,0.14907792210578918,0.28678572177886963,4.338643548573527,0.5755498215747321,2.726784868066733,0.1749629877413581
0.05648893490433693,0.3226886987686157,0.1426946222782135,0.3078571557998657,4.321421353699692,0.5800540910270495,2.765374207627295,0.1774673582383618
0.05334822088479996,0.3287181854248047,0.14235761761665344,0.3112500011920929,4.584407932741749,0.5805569452567282,2.818652651346645,0.18559810404814053
0.050685834139585495,0.341692715883255,0.14008089900016785,0.3008928596973419,4.1821777258304715,0.5806848791716367,2.770528745001368,0.1772941532142559
0.04870054870843887,0.34740954637527466,0.13938754796981812,0.320892870426178,4.847517813336439,0.5811141583148909,2.8590978544815964,0.19099100817983103
0.0471002496778965,0.35520321130752563,0.134447380900383,0.3169642984867096,4.55465523247521,0.582802595253401,2.870310290866217,0.18444625267227813
0.04527628421783447,0.3644484281539917,0.14269542694091797,0.30464285612106323,5.4104385129600505,0.5831089431458254,2.866319478032369,0.1960671859813761
0.0445437990128994,0.3655426502227783,0.13518184423446655,0.3278571367263794,4.43866988393838,0.5835843739835103,2.892146648879024,0.19126761973900042
0.04318175092339516,0.3734256327152252,0.13414566218852997,0.3283928632736206,4.871461140625772,0.5835819158562325,2.9006786966789773,0.19069448562651814
0.04195732623338699,0.3762393891811371,0.13288217782974243,0.3425000011920929,4.464340567875504,0.5842023833439236,2.9012443075520564,0.18705598418111233
0.04097537323832512,0.3821125626564026,0.13610857725143433,0.3110714256763458,4.229937945684388,0.5812638995678345,2.865267016044684,0.18708172341404217
0.03994541987776756,0.38503795862197876,0.13451619446277618,0.33392858505249023,4.584895590620396,0.5843375515054234,2.9252315368875346,0.1952906102953919
0.039029739797115326,0.38461366295814514,0.13196367025375366,0.3648214340209961,4.394204614419271,0.5833556273703656,2.918491102769992,0.19266944413625683
0.038407281041145325,0.38858866691589355,0.1354774534702301,0.3310714364051819,4.431871247735741,0.5824118635924506,2.9110723223407486,0.1939033374078107
0.037570081651210785,0.3961813449859619,0.13076071441173553,0.3482142984867096,4.16106641704077,0.5850060659642459,2.9454109800419332,0.19382224943301696
0.036817796528339386,0.39682894945144653,0.13386978209018707,0.3410714268684387,4.681409237763537,0.5865661187287221,2.966994373439901,0.2026204379361831
0.035995710641145706,0.39823582768440247,0.13017021119594574,0.3385714292526245,4.292975519677828,0.5860384771954269,2.9501054817950614,0.19556239586049698
0.03526856750249863,0.405225545167923,0.12859345972537994,0.36000001430511475,4.121281972704664,0.5864785134608624,2.963108586539104,0.19505986992219262
0.034909896552562714,0.4071683883666992,0.1301725059747696,0.3533928692340851,4.547743551845808,0.5863956548869534,2.964030650154469,0.19835280974765263
0.03436153382062912,0.40803930163383484,0.12884454429149628,0.341785728931427,4.354527437278548,0.5863093761898711,2.995105843597387,0.19849768740041343
0.03361131250858307,0.4127512276172638,0.13133089244365692,0.34482142329216003,4.2530659542474085,0.5866979434187651,2.993754369679382,0.2013037401036711
0.033156152814626694,0.41779813170433044,0.13330888748168945,0.365535706281662,4.619897157691581,0.5873169072379497,2.9765531041316984,0.20384417467719845
0.032639648765325546,0.4190933406352997,0.13056118786334991,0.3430357277393341,4.464517900130846,0.5861267098488372,2.967736514380935,0.1975416779462263
0.032234128564596176,0.4189817011356354,0.12867876887321472,0.34482142329216003,4.41171016841814,0.5868909933389315,2.971098554949539,0.19686204159353277
0.03199801966547966,0.42190709710121155,0.1304486095905304,0.3496428430080414,4.727384771485908,0.5878904217080688,2.9916273003495073,0.20259071997245792
0.03122943453490734,0.4262840449810028,0.13044388592243195,0.3496428430080414,4.649854081337956,0.5858075277394735,2.9855869963749857,0.20127253907052434
0.030783524736762047,0.42657434940338135,0.12631164491176605,0.3687500059604645,4.154906313508969,0.5877520859248965,3.004713002936945,0.1995547246761201
0.030505144968628883,0.4321795403957367,0.12610924243927002,0.36625000834465027,4.096532698186265,0.5878350571735765,3.023785115851745,0.20076933035589065
0.030258094891905785,0.4326261579990387,0.12671874463558197,0.3691071569919586,4.109365504419454,0.587557828720439,2.987071438349211,0.19849855747469491
0.0297908503562212,0.43765074014663696,0.12627679109573364,0.36446428298950195,4.225912986359049,0.5878138555495827,3.0177223254821923,0.20031758513397196
0.029407504945993423,0.4383876621723175,0.12596973776817322,0.3641071319580078,4.294604462656917,0.5866677304295715,3.013167005059109,0.2002526356615868
0.02916884794831276,0.43586423993110657,0.127678781747818,0.39142856001853943,4.8176493896822725,0.5879277553513443,3.018720069305138,0.204196269562897
0.028803087770938873,0.4459356963634491,0.12693250179290771,0.3673214316368103,4.415708705151544,0.5872654454363438,3.014021974463869,0.2022995120382762
0.02831762284040451,0.4472532272338867,0.12537327408790588,0.36625000834465027,4.4591917058159165,0.5887594062663645,3.045791062631625,0.20441265461455385
0.028340227901935577,0.4476105272769928,0.1247105523943901,0.36196428537368774,4.560486546204683,0.5886831702059969,3.0057869627662095,0.2000348948262469
0.027853291481733322,0.4461366534233093,0.12594914436340332,0.3710714280605316,4.494697995737906,0.5895272395503486,3.053078156873232,0.20681325316859642
0.027729034423828125,0.4549129009246826,0.12650282680988312,0.35035714507102966,4.484085199085697,0.5882499708962444,3.033804837657866,0.20551927334982004
0.027196502313017845,0.45596247911453247,0.12439324706792831,0.36071428656578064,4.563113207033858,0.5892605887997826,3.0733359009075247,0.20712514991348926
0.02699906937777996,0.4543546140193939,0.12359701842069626,0.3705357015132904,4.314251960065158,0.5890248437204606,3.061729648420858,0.20419645341727058
0.02681136503815651,0.4614783525466919,0.12225323170423508,0.36839285492897034,4.170469104255561,0.5891044946333803,3.056601495615715,0.2021654050334562
0.02664882130920887,0.4592898488044739,0.12469553202390671,0.3703571557998657,4.436742139565003,0.5886916557783538,3.04706981745547,0.20513356344683278
0.026432586833834648,0.4602501094341278,0.1255212277173996,0.36714285612106323,4.538277693927039,0.5905336247970725,3.0684027463219934,0.20840681648895906
0.026098156347870827,0.46143367886543274,0.12532725930213928,0.37089285254478455,4.524539212248184,0.5880407970829721,3.030330086792727,0.2030818329298979
0.025917498394846916,0.46221527457237244,0.12379208207130432,0.36017856001853943,4.333787926062548,0.5882698090091105,3.04626439156464,0.20437658817465332
0.025621460750699043,0.4667932093143463,0.12233289331197739,0.37535715103149414,4.591577881541406,0.5893208301324414,3.0756402347573197,0.2048431956090837
0.02539459988474846,0.4665922224521637,0.12609416246414185,0.3691071569919586,4.876543849579048,0.5882340979620528,3.042556707802406,0.2083585799520828
0.025307701900601387,0.46587762236595154,0.12278888374567032,0.39178571105003357,4.6274836382451525,0.5891397671386622,3.04252650684053,0.20193362737844078
0.025131605565547943,0.4705672264099121,0.12169930338859558,0.3767857253551483,4.363171583985765,0.5897219404097669,3.064388482689884,0.202333641860237
0.024835580959916115,0.4681330919265747,0.1218978688120842,0.37714284658432007,4.490007277284005,0.5894198038307819,3.069634986232729,0.2044702161863669
0.0246074590831995,0.47440820932388306,0.12103087455034256,0.3725000023841858,4.076195203492524,0.5891468328324052,3.041981790540528,0.19984869852639134
0.02442915551364422,0.47393926978111267,0.1225707158446312,0.3744642734527588,4.3377790145097395,0.5896216022956815,3.053302818018436,0.20315698741347293
0.024314312264323235,0.475145161151886,0.12251994758844376,0.37857142090797424,4.531580520961533,0.5895817970241706,3.080269503520662,0.2058225295086675
0.02414644882082939,0.47684234380722046,0.12388502806425095,0.3871428668498993,4.311303765284714,0.588816895015119,3.076425868620154,0.20697605308852984
0.024080902338027954,0.4770209789276123,0.12510335445404053,0.37607142329216003,4.44739907214602,0.5898575945399424,3.075513435120703,0.21060814235278844
0.02394123561680317,0.4782492220401764,0.12073098123073578,0.3757142722606659,4.139339008183136,0.5902720055095008,3.0531230991838285,0.20110890606015885
0.023600419983267784,0.4824698567390442,0.12117672711610794,0.3630357086658478,4.284424469898991,0.5904883772649423,3.08561020469903,0.20732469408917828
0.023562246933579445,0.4801473915576935,0.11978177726268768,0.36714285612106323,4.480299395586356,0.5915527192515565,3.0973883486908687,0.2087006530277209
0.023354828357696533,0.4820232391357422,0.12007521837949753,0.35857143998146057,4.296298744393857,0.5898792947463665,3.07245129438086,0.2033066921272084
0.023303739726543427,0.47840553522109985,0.12181796133518219,0.38303571939468384,4.401200149721977,0.5895937809166801,3.0653033061482113,0.20567583036768033
0.022976865991950035,0.48206788301467896,0.12757323682308197,0.36839285492897034,4.800914836510862,0.5897983927305682,3.055526455528787,0.2111999495026674
0.022894442081451416,0.4807949960231781,0.12271468341350555,0.3710714280605316,4.438117628651406,0.5899255456720414,3.0964369666030587,0.2109594715532313
0.02276194654405117,0.4848146438598633,0.12291912734508514,0.38035714626312256,4.382925368561823,0.5890823299299747,3.0897311099080715,0.20832742056842424
0.022804247215390205,0.4859088957309723,0.1216852217912674,0.38285714387893677,4.1516713543270605,0.5894102848250393,3.0867678828296423,0.2069198765984397
0.022579815238714218,0.4882090091705322,0.1242082342505455,0.37142857909202576,4.674478642009314,0.5905417872117781,3.088035259652022,0.21254146932602222
0.022435860708355904,0.4885439872741699,0.12113190442323685,0.37517857551574707,4.6486343242188175,0.5899452302940082,3.0733341193533406,0.20598852291446662
0.022364342585206032,0.48771771788597107,0.12123920023441315,0.3719642758369446,4.334950589947652,0.5901316282433862,3.082987216137539,0.20683835434950099
0.02221139334142208,0.49117910861968994,0.12450128048658371,0.3692857027053833,4.586533753145651,0.5895512321739471,3.087449796146762,0.21070217326708648
0.02198098599910736,0.49283161759376526,0.12516839802265167,0.38374999165534973,4.838180685054902,0.589555679485141,3.084298343457772,0.2124927653868185
0.02174694463610649,0.49341222643852234,0.12027643620967865,0.3583928644657135,4.362334395740448,0.5896891086663855,3.101930298814702,0.2078558921781505
0.021825432777404785,0.4913354218006134,0.12244530767202377,0.37392857670783997,4.483971227625595,0.5893359023804668,3.0918029209558058,0.20871119259136472
0.021697361022233963,0.4943278133869171,0.12302813678979874,0.3757142722606659,4.639222604756602,0.5890438415630388,3.093630671812263,0.2094026955385989
0.021555691957473755,0.49414917826652527,0.12168984860181808,0.3814285695552826,4.503900831096911,0.5901345151488019,3.1082855151232063,0.20970511504492984
0.021558383479714394,0.49749886989593506,0.12103401124477386,0.3799999952316284,4.249963422414704,0.5904807337914064,3.129957781570113,0.2088272760532356
0.021420735865831375,0.4936355650424957,0.12113694101572037,0.3723214268684387,4.744361691916436,0.590359079355837,3.105013974097996,0.2096165073531038
0.021216697990894318,0.4944171607494354,0.12409073859453201,0.36946427822113037,4.696128678361276,0.589943010039005,3.087767266415977,0.21272601189002927
0.021238891407847404,0.4991067349910736,0.11997223645448685,0.3685714304447174,4.451964494001993,0.5895395291128012,3.098929008610773,0.2077249837734556
0.021066637709736824,0.5029031038284302,0.12108023464679718,0.3782142996788025,4.575891557574866,0.5902034672717017,3.1081999091405543,0.21063969443909622
0.020997559651732445,0.49937471747398376,0.1206926628947258,0.36446428298950195,4.463970023003552,0.5901544813188442,3.1153781732120516,0.20905786772539547
0.02082543447613716,0.503394365310669,0.1216210201382637,0.3583928644657135,4.245114798913145,0.5889431477211783,3.050561961877488,0.20214736193342958
0.0207544956356287,0.5033273696899414,0.12393701821565628,0.3801785707473755,4.5348070740471496,0.5893964409536843,3.1209643608403197,0.21356245043716748
0.02062024176120758,0.50131756067276,0.1202947199344635,0.37732142210006714,4.226928367450418,0.5893963328993543,3.0945806064964296,0.20702290714366
0.020624928176403046,0.49993300437927246,0.11991177499294281,0.36142855882644653,4.242182418683079,0.5893392006660125,3.1009056037108302,0.20639763682595266
0.02043132111430168,0.5074140429496765,0.11979672312736511,0.37910714745521545,4.0640336733781295,0.5899918530101943,3.079337995500697,0.2042134433982049
0.020336030051112175,0.5045332908630371,0.12241245806217194,0.3858928680419922,4.60549209315857,0.5900676990441803,3.116330491867424,0.2126568626073529
0.020331701263785362,0.5015631914138794,0.12041550874710083,0.3792857229709625,4.231608879140707,0.5897166080823708,3.0926716690058638,0.20683495161900026
0.020234128460288048,0.5078383088111877,0.12123531848192215,0.39321428537368774,4.575134668222136,0.5892901699807683,3.1099734904585565,0.2099435746797006
0.020185980945825577,0.5080839395523071,0.12120229750871658,0.37089285254478455,4.332336512664937,0.5898523180756067,3.1109174837473277,0.21012683461397058
0.020082032307982445,0.5092675089836121,0.12337974458932877,0.39821428060531616,4.475376216429146,0.589486710427586,3.0885281869818657,0.21131514637236173
0.0200475063174963,0.5066324472427368,0.12218746542930603,0.373035728931427,4.15025187678716,0.5896622151294427,3.0879893163092667,0.2085094391536005
0.019822953268885612,0.5105850696563721,0.12334451824426651,0.3787499964237213,4.567550570179232,0.5892992429655781,3.1059958695411694,0.21245672954717748
0.019840244203805923,0.5115230083465576,0.1206025555729866,0.3673214316368103,4.514981889067133,0.5906312730448261,3.099866897680285,0.207394170796351
0.019679054617881775,0.5111880302429199,0.12012701481580734,0.36892858147621155,4.340596625344589,0.5892684876211597,3.12825929838419,0.2084422901531773
0.019658176228404045,0.5084412693977356,0.12144097685813904,0.3910714387893677,4.664072179301714,0.5906330245522796,3.1275839609072995,0.21172288884659726
0.01962793804705143,0.510451078414917,0.1218186542391777,0.3591071367263794,4.373296877786668,0.5894044951909645,3.104567320684139,0.20942350196275006
0.019541895017027855,0.5128628611564636,0.11918969452381134,0.3723214268684387,4.350659959882898,0.5906696790983629,3.13145809722693,0.20980259698760095
0.019509918987751007,0.5102054476737976,0.12331444770097733,0.3998214304447174,4.545705913338243,0.5886258159890633,3.1138817609130327,0.21227051572214536
0.019436810165643692,0.5114560127258301,0.12374702095985413,0.3824999928474426,4.549508182103397,0.5894913601761109,3.1152289934215753,0.2142088792096505
0.019471151754260063,0.5137114524841309,0.12539146840572357,0.39071428775787354,4.588669256877439,0.5885292504401427,3.0898197465978736,0.21304709374660027
0.019286153838038445,0.5122599601745605,0.12153279036283493,0.3908928632736206,4.703599970907203,0.5889140791126211,3.1138708009758544,0.2101540494984872
0.0191582590341568,0.5162795782089233,0.12099654227495193,0.3896428644657135,4.647434381052735,0.5900469139182334,3.1297848572877918,0.21298314064546015
0.019045913591980934,0.5187807083129883,0.12144658714532852,0.3801785707473755,4.046919929188423,0.587967343011814,3.0916006859750365,0.20690279376963508
0.01900448463857174,0.5191603302955627,0.11991043388843536,0.38857144117355347,4.269146466189622,0.5903191072048729,3.115937759490814,0.20985963525902268
0.019038967788219452,0.5189370512962341,0.12001802772283554,0.4003571569919586,4.3780431846979155,0.5901022331426442,3.1334548138804785,0.21075883553548383
0.018882019445300102,0.5148950219154358,0.1208343431353569,0.37714284658432007,4.350703404825243,0.5898155682071083,3.104449621473051,0.20884560183840892
0.018809430301189423,0.5165475606918335,0.1186865046620369,0.38303571939468384,4.650621029659225,0.5896030327508184,3.1341323544444575,0.20905676621273814
0.018697794526815414,0.5193836688995361,0.12035362422466278,0.4003571569919586,4.572001953921583,0.5908982041586559,3.12304403970641,0.2127422444787916
0.0186958909034729,0.5219070911407471,0.12152895331382751,0.38928571343421936,4.5404093071944756,0.5901592717424683,3.134148069738364,0.21358337129308333
0.01879444159567356,0.5221750736236572,0.12040884792804718,0.3869642913341522,4.6060190717412635,0.5903307685724624,3.1229395622245972,0.2105494855303222
0.018556449562311172,0.5223537087440491,0.12811025977134705,0.3839285671710968,4.6512249601604765,0.5908249099725927,3.080152550181329,0.21733643639527014
0.018668917939066887,0.5222644209861755,0.1176973432302475,0.385357141494751,4.499012793394076,0.5910095287763433,3.157468142153353,0.2121625361118559
0.018618853762745857,0.5216391086578369,0.11798903346061707,0.3916071355342865,4.181400407670108,0.5907912671361938,3.1516573609378176,0.21167800512185653
0.01834135130047798,0.5250558257102966,0.12027816474437714,0.3783928453922272,4.39096054365105,0.589946391444608,3.1317591979345725,0.21188651496275626
0.018254172056913376,0.526909351348877,0.1206057071685791,0.3869642913341522,4.43631310021175,0.5909897334259503,3.1400228136752735,0.2130923134030322
0.018325213342905045,0.5269986391067505,0.12042611092329025,0.397857129573822,4.766250589378204,0.5899594998175485,3.1411996313818684,0.21283738840440225
0.018499454483389854,0.5249441862106323,0.12008386105298996,0.375,4.313535634633694,0.5890837039214583,3.075602586563182,0.20365463577726464
0.018285633996129036,0.5276685953140259,0.11940742284059525,0.384464293718338,4.326970502124001,0.5894462305825554,3.1150402027528195,0.20832687856208207
0.018073903396725655,0.5306833386421204,0.11856676638126373,0.38035714626312256,4.5204961074315735,0.5904924305876453,3.1516011380189966,0.21118785774999774
0.01804942637681961,0.5301027297973633,0.12175197899341583,0.385357141494751,4.468695043454038,0.589263431055445,3.1266247382065897,0.21165065572681058
0.018164483830332756,0.527065634727478,0.120526023209095,0.3908928632736206,4.55039372118321,0.5902032892271105,3.1326743169831754,0.2128123916958775
0.017951441928744316,0.5298123955726624,0.11911370605230331,0.39946427941322327,4.325053985777228,0.589827037316065,3.1310561519961566,0.2081121812541639
0.018075503408908844,0.5295444130897522,0.12120112031698227,0.4057142734527588,4.546509709382744,0.588553707792311,3.1434679627919024,0.21364061482980287
0.01793464459478855,0.5326038599014282,0.12045668810606003,0.4000000059604645,4.299142688457029,0.5894383602613161,3.120756241632933,0.2103209071320637
0.017750265076756477,0.5313085913658142,0.1200907975435257,0.39750000834465027,4.54049860198816,0.5890091669529753,3.1637179644533555,0.21391994874124745
0.01780513860285282,0.5323358774185181,0.12115850299596786,0.3883928656578064,4.374164561934292,0.5888942735457753,3.1182515451359034,0.21131426864673647
0.017824124544858932,0.5308619737625122,0.12027426809072495,0.3960714340209961,4.607288615416024,0.5894626346671994,3.1270212495070777,0.21098895004987042
