loss,accuracy,val_loss,val_accuracy
0.02020665630698204,0.5287132263183594,0.1546270102262497,0.3655882477760315
0.019622931256890297,0.5326470732688904,0.15104621648788452,0.37205880880355835
0.019696038216352463,0.5351102948188782,0.15340390801429749,0.3817647099494934
0.02051948383450508,0.5292279124259949,0.15392979979515076,0.34029412269592285
0.01966973766684532,0.5306985378265381,0.15498816967010498,0.3664705753326416
0.019467707723379135,0.5351470708847046,0.15432782471179962,0.387058824300766
0.019673964008688927,0.5390808582305908,0.1523829698562622,0.39352941513061523
0.019326547160744667,0.5359191298484802,0.15322723984718323,0.385294109582901
0.01916678622364998,0.5423896908760071,0.15926364064216614,0.3673529326915741
0.019480731338262558,0.5329043865203857,0.1560209095478058,0.37705883383750916
0.0195161160081625,0.5373896956443787,0.15439757704734802,0.36441177129745483
0.018998486921191216,0.5412867665290833,0.16043145954608917,0.3955882489681244
0.019079869613051414,0.5373529195785522,0.15170420706272125,0.3782352805137634
0.01873505488038063,0.5420956015586853,0.15464887022972107,0.37617647647857666
0.01898452825844288,0.5386029481887817,0.15927450358867645,0.37205880880355835
0.018775587901473045,0.5440808534622192,0.15209093689918518,0.37029412388801575
0.021142849698662758,0.5257720351219177,0.15993525087833405,0.3620588183403015
0.018849613144993782,0.545514702796936,0.15330734848976135,0.38058823347091675
0.018613696098327637,0.5437132120132446,0.15716765820980072,0.3700000047683716
0.018652543425559998,0.5403308868408203,0.15456826984882355,0.3955882489681244
0.018509933724999428,0.542316198348999,0.1583968549966812,0.3879411816596985
0.018011052161455154,0.5502573251724243,0.15647071599960327,0.3655882477760315
0.018487725406885147,0.5455882549285889,0.1557425707578659,0.3794117569923401
0.01833912543952465,0.5459191203117371,0.15587343275547028,0.36705881357192993
0.018371224403381348,0.5449632406234741,0.15756618976593018,0.38382354378700256
0.01824767515063286,0.546875,0.1539769470691681,0.3835294246673584
0.018393879756331444,0.5458088517189026,0.15399588644504547,0.385294109582901
0.018016986548900604,0.5488970875740051,0.15773876011371613,0.388823539018631
0.018672533333301544,0.5440441370010376,0.1560617834329605,0.37882351875305176
0.01868177391588688,0.5441176295280457,0.15539491176605225,0.388823539018631
0.01809048280119896,0.5461397171020508,0.1549568921327591,0.3741176426410675
0.018100203946232796,0.5495588183403015,0.15534789860248566,0.3597058951854706
0.017905540764331818,0.5515441298484802,0.1579258292913437,0.373235285282135
0.018092535436153412,0.5535294413566589,0.15650245547294617,0.3697058856487274
0.01762991212308407,0.550808846950531,0.1536177098751068,0.3905882239341736
0.017670797184109688,0.5494117736816406,0.1552816480398178,0.376764714717865
0.017287099733948708,0.5565809011459351,0.15325744450092316,0.4067647159099579
0.01763392798602581,0.5540809035301208,0.1558576375246048,0.3952941298484802
0.01758703961968422,0.5554412007331848,0.15449155867099762,0.3970588147640228
0.017969096079468727,0.552242636680603,0.16331399977207184,0.376764714717865
0.01777537167072296,0.5556617379188538,0.15768031775951385,0.38147059082984924
0.018067242577672005,0.5499264597892761,0.16007986664772034,0.3911764621734619
0.017420722171664238,0.5556985139846802,0.1547449827194214,0.3799999952316284
0.017287366092205048,0.5573896765708923,0.15616798400878906,0.3741176426410675
0.017065588384866714,0.5557352900505066,0.15526238083839417,0.36500000953674316
0.01708546280860901,0.5544853210449219,0.15596604347229004,0.38411763310432434
0.017086146399378777,0.5598897337913513,0.15349356830120087,0.3605882227420807
0.01760927401483059,0.5496691465377808,0.15432654321193695,0.3897058963775635
0.01756635122001171,0.5497426390647888,0.15520961582660675,0.37529411911964417
0.017249884083867073,0.5572794079780579,0.15618495643138885,0.3758823573589325
0.01698802225291729,0.5572426319122314,0.1556168645620346,0.3773529529571533
0.016888154670596123,0.5614705681800842,0.15817025303840637,0.40617647767066956
0.01696075312793255,0.5569117665290833,0.15127414464950562,0.37970587611198425
0.018517177551984787,0.546875,0.15255582332611084,0.3938235342502594
0.016683800145983696,0.5645220875740051,0.15009519457817078,0.40117648243904114
0.01647118106484413,0.5663602948188782,0.1507507711648941,0.41647058725357056
0.0165594220161438,0.5612499713897705,0.15379098057746887,0.3885294198989868
0.01673770882189274,0.5583456158638,0.15179245173931122,0.3782352805137634
0.016621988266706467,0.5623529553413391,0.15391938388347626,0.37294116616249084
0.016480950638651848,0.561139702796936,0.1546301394701004,0.38735294342041016
0.016613980755209923,0.5585294365882874,0.15080837905406952,0.400882363319397
0.016856180503964424,0.5566176176071167,0.15529407560825348,0.3879411816596985
0.016867097467184067,0.5620588064193726,0.15534961223602295,0.40294116735458374
0.016347253695130348,0.566838264465332,0.1533169150352478,0.3794117569923401
0.01649237424135208,0.5631250143051147,0.15162093937397003,0.3655882477760315
0.01630750298500061,0.5685294270515442,0.15124017000198364,0.3688235282897949
0.01634780503809452,0.5637132525444031,0.15442229807376862,0.39764705300331116
0.016641240566968918,0.5656617879867554,0.15161311626434326,0.3723529279232025
0.016454042866826057,0.5660662055015564,0.15360867977142334,0.4005882441997528
0.016244079917669296,0.5662132501602173,0.15754032135009766,0.3988235294818878
0.01647636853158474,0.5655882358551025,0.15298469364643097,0.38588234782218933
0.016248367726802826,0.5638970732688904,0.15278536081314087,0.399117648601532
0.01690327189862728,0.558566153049469,0.1568244993686676,0.39764705300331116
0.01604095660150051,0.5663235187530518,0.1542844921350479,0.3638235330581665
0.016028933227062225,0.5694853067398071,0.15526144206523895,0.41911765933036804
0.016238367184996605,0.5640808939933777,0.150542750954628,0.38294118642807007
0.01607862114906311,0.5694117546081543,0.15317730605602264,0.3826470673084259
0.01583717204630375,0.5720220804214478,0.15246425569057465,0.38558822870254517
0.016719689592719078,0.5620588064193726,0.15367324650287628,0.37117648124694824
0.016482343897223473,0.5649999976158142,0.1565474420785904,0.39411765336990356
0.015720529481768608,0.5691544413566589,0.15328270196914673,0.38470587134361267
0.01571977138519287,0.5743382573127747,0.15457145869731903,0.4152941107749939
0.015834776684641838,0.571801483631134,0.1520117074251175,0.3785293996334076
0.01574752666056156,0.5737500190734863,0.1530621498823166,0.397352933883667
0.015555227175354958,0.5799999833106995,0.15253756940364838,0.38294118642807007
0.015812132507562637,0.5706617832183838,0.15309959650039673,0.3894117772579193
0.01582428067922592,0.5693014860153198,0.15012922883033752,0.3970588147640228
0.01578022725880146,0.5722426176071167,0.15171068906784058,0.40176472067832947
0.015718016773462296,0.5757720470428467,0.15611451864242554,0.4000000059604645
0.015899445861577988,0.5690808892250061,0.15059925615787506,0.38558822870254517
0.015745077282190323,0.5710662007331848,0.15674912929534912,0.3808823525905609
0.015507633797824383,0.5717279314994812,0.1515110582113266,0.38735294342041016
0.01579575054347515,0.5748529434204102,0.15324720740318298,0.3764705955982208
0.01567942276597023,0.5752573609352112,0.15415960550308228,0.3785293996334076
0.015515969134867191,0.5723161697387695,0.15472394227981567,0.3997058868408203
0.015459522604942322,0.5801838040351868,0.1582113653421402,0.38470587134361267
0.015749871730804443,0.5695220828056335,0.15057134628295898,0.3920588195323944
0.015434117056429386,0.5741544365882874,0.15294596552848816,0.3773529529571533
0.015197047032415867,0.5783088207244873,0.15509872138500214,0.37617647647857666
0.015578988008201122,0.5741544365882874,0.1569996178150177,0.3879411816596985
0.015638217329978943,0.5726470351219177,0.15463566780090332,0.3920588195323944
0.014988789334893227,0.5783455967903137,0.1520707905292511,0.3794117569923401
0.015136780217289925,0.581250011920929,0.15359452366828918,0.39676469564437866
0.015165952034294605,0.5752941370010376,0.15437446534633636,0.38382354378700256
0.01582479663193226,0.5761029124259949,0.15662522614002228,0.38235294818878174
0.01515192724764347,0.5781985521316528,0.15650951862335205,0.3929411768913269
0.015160471200942993,0.579889714717865,0.15686605870723724,0.3791176378726959
0.01498971413820982,0.5846691131591797,0.15304331481456757,0.3929411768913269
0.014982514083385468,0.5824999809265137,0.15385578572750092,0.38058823347091675
0.015550263226032257,0.5759926438331604,0.15423379838466644,0.3791176378726959
0.02712918072938919,0.4767279326915741,0.16709397733211517,0.37705883383750916
0.028355566784739494,0.4699632227420807,0.16689996421337128,0.3397058844566345
0.026251597329974174,0.4811764657497406,0.16536639630794525,0.3714706003665924
0.029509197920560837,0.463382363319397,0.16601866483688354,0.373235285282135
0.02888984978199005,0.46705883741378784,0.1690031886100769,0.32588234543800354
0.026290977373719215,0.482573539018631,0.16764558851718903,0.36529412865638733
0.025976933538913727,0.4815808832645416,0.19926726818084717,0.3235294222831726
0.026849012821912766,0.4758455753326416,0.1637292355298996,0.34970587491989136
0.02662023901939392,0.4802573621273041,0.18962086737155914,0.3588235378265381
0.028074713423848152,0.47113969922065735,0.16616925597190857,0.3597058951854706
0.026188310235738754,0.48088234663009644,0.1773720234632492,0.3458823561668396
0.027157722041010857,0.4797794222831726,0.1902288943529129,0.3467647135257721
0.027386588975787163,0.4756985306739807,0.17597542703151703,0.35735294222831726
0.02715884894132614,0.4735293984413147,0.1743394434452057,0.35735294222831726
0.026277203112840652,0.4820588231086731,0.16978085041046143,0.35911765694618225
0.026474222540855408,0.47860294580459595,0.17574374377727509,0.33941176533699036
0.026298629119992256,0.47952204942703247,0.1719401627779007,0.35647058486938477
0.025134868919849396,0.4879043996334076,0.17144837975502014,0.36617645621299744
0.026797162368893623,0.4783088266849518,0.17404510080814362,0.34647059440612793
0.026958182454109192,0.4778308868408203,0.17427876591682434,0.3485293984413147
0.02571982704102993,0.48411765694618225,0.17027732729911804,0.3458823561668396
0.02604668028652668,0.4886764585971832,0.17005197703838348,0.35147058963775635
0.02709708921611309,0.47720587253570557,0.1974208503961563,0.2955882251262665
0.02565130963921547,0.4850367605686188,0.16942119598388672,0.3329411745071411
0.028020089492201805,0.47238969802856445,0.18417593836784363,0.33352941274642944
0.02674543298780918,0.4802573621273041,0.1677902340888977,0.36176469922065735
0.025755401700735092,0.4865073561668396,0.16942398250102997,0.3811764717102051
0.02501089498400688,0.48963233828544617,0.20178863406181335,0.294705867767334
0.027079584077000618,0.48110294342041016,0.18933963775634766,0.328529417514801
0.02495230734348297,0.493272066116333,0.17573922872543335,0.34029412269592285
0.02464979700744152,0.49172794818878174,0.17462529242038727,0.3444117605686188
0.024461282417178154,0.4955514669418335,0.17624785006046295,0.35823529958724976
0.024958975613117218,0.4884191155433655,0.17104704678058624,0.373235285282135
0.025149546563625336,0.49088236689567566,0.17542293667793274,0.3597058951854706
0.024892443791031837,0.49338236451148987,0.22666063904762268,0.2935294210910797
0.027779443189501762,0.47827205061912537,0.18002232909202576,0.33705881237983704
0.026369737461209297,0.4833088219165802,0.1833820790052414,0.33676469326019287
0.026196027174592018,0.48249998688697815,0.17227917909622192,0.3444117605686188
0.025301210582256317,0.48591911792755127,0.16847164928913116,0.3620588183403015
0.02490682527422905,0.4914338290691376,0.17109915614128113,0.36352941393852234
0.02551926299929619,0.4879043996334076,0.2637499272823334,0.20235294103622437
0.02811378240585327,0.48091912269592285,0.19285975396633148,0.2961764633655548
0.027190545573830605,0.4906249940395355,0.17032784223556519,0.3679411709308624
0.023492038249969482,0.5021323561668396,0.1665852665901184,0.34794119000434875
0.02437608689069748,0.49632352590560913,0.17594550549983978,0.35558822751045227
0.02627204917371273,0.48713234066963196,0.16628782451152802,0.38470587134361267
0.024131564423441887,0.501360297203064,0.16928264498710632,0.361176460981369
0.025171181187033653,0.49422794580459595,0.17070597410202026,0.35558822751045227
0.022979820147156715,0.5058456063270569,0.17156913876533508,0.33705881237983704
0.025965116918087006,0.4856617748737335,0.18895554542541504,0.32764706015586853
0.023123903200030327,0.5001838207244873,0.17620493471622467,0.349117636680603
0.025518344715237617,0.49279412627220154,0.19130787253379822,0.3208823502063751
0.024818716570734978,0.4937867522239685,0.1731947958469391,0.3576470613479614
0.024784374982118607,0.48992645740509033,0.16354641318321228,0.3708823621273041
0.027509639039635658,0.4770955741405487,0.1701289862394333,0.35647058486938477
0.026428911834955215,0.4854779541492462,0.16700021922588348,0.37794119119644165
0.028064001351594925,0.4729779362678528,0.17333722114562988,0.35823529958724976
0.02405228093266487,0.5003676414489746,0.1645304411649704,0.36264705657958984
0.02529366873204708,0.4951838254928589,0.16549791395664215,0.38647058606147766
0.0241385530680418,0.49988970160484314,0.19753575325012207,0.3055882453918457
0.023644868284463882,0.49830883741378784,0.16822515428066254,0.36500000953674316
0.0238198172301054,0.5012500286102295,0.1637222319841385,0.37117648124694824
0.023894714191555977,0.5030882358551025,0.17675182223320007,0.35147058963775635
0.023500649258494377,0.5043749809265137,0.16985900700092316,0.3844117522239685
0.02454281784594059,0.49632352590560913,0.17018327116966248,0.3923529386520386
0.0242720078676939,0.5022059082984924,0.1663762480020523,0.37558823823928833
0.023888399824500084,0.4987132251262665,0.17424841225147247,0.3952941298484802
0.023312712088227272,0.5033456087112427,0.16727633774280548,0.37882351875305176
0.024246370419859886,0.5008456110954285,0.18840904533863068,0.3373529314994812
0.02398611605167389,0.49922794103622437,0.17787745594978333,0.36264705657958984
0.023055167868733406,0.5064338445663452,0.16467975080013275,0.3705882430076599
0.02376098372042179,0.4945220649242401,0.1692453920841217,0.3776470720767975
0.02787574753165245,0.48110294342041016,0.17533038556575775,0.35647058486938477
0.023719171062111855,0.501360297203064,0.1659023016691208,0.3776470720767975
0.02325533889234066,0.5012132525444031,0.16616779565811157,0.36441177129745483
0.02321230061352253,0.5048529505729675,0.16302700340747833,0.37529411911964417
0.023479055613279343,0.5041911602020264,0.17197364568710327,0.3820588290691376
0.02487289160490036,0.4991176426410675,0.2915970981121063,0.18529412150382996
0.02696622721850872,0.48602941632270813,0.17837873101234436,0.3791176378726959
0.0240328311920166,0.49863970279693604,0.1737828105688095,0.35411766171455383
0.02314091846346855,0.5060294270515442,0.1858852505683899,0.33705881237983704
0.023585084825754166,0.5061764717102051,0.17330895364284515,0.35382354259490967
0.02380925789475441,0.5031617879867554,0.20055624842643738,0.29735293984413147
0.024485452100634575,0.5003676414489746,0.1790798306465149,0.3535294234752655
0.022388514131307602,0.5097059011459351,0.1697511076927185,0.3691176474094391
0.025425704196095467,0.49669116735458374,0.16292902827262878,0.385294109582901
0.023299559950828552,0.5094117522239685,0.2001046985387802,0.3073529303073883
0.02345588430762291,0.5093749761581421,0.17974351346492767,0.34647059440612793
0.02413463220000267,0.5015441179275513,0.1693933755159378,0.38823530077934265
0.023057807236909866,0.5066176652908325,0.16453810036182404,0.3844117522239685
0.025292346253991127,0.5026102662086487,0.1937837153673172,0.33617648482322693
0.025286776944994926,0.49525734782218933,0.16386957466602325,0.37705883383750916
0.023696426302194595,0.5058456063270569,0.17077574133872986,0.3552941083908081
0.02459978125989437,0.4941176474094391,0.18008925020694733,0.35058823227882385
0.02289014682173729,0.5080514550209045,0.17453283071517944,0.3735294044017792
0.022241953760385513,0.5147058963775635,0.16337455809116364,0.35588234663009644
0.023460954427719116,0.5041543841362,0.1788349151611328,0.3691176474094391
0.02274179272353649,0.511066198348999,0.1734755039215088,0.3499999940395355
0.022931277751922607,0.5102205872535706,0.16449271142482758,0.3817647099494934
0.02184782177209854,0.5154779553413391,0.18776412308216095,0.3235294222831726
0.023697447031736374,0.5130147337913513,0.17405828833580017,0.3435294032096863
0.022945454344153404,0.5074632167816162,0.16415709257125854,0.387058824300766
0.022290755063295364,0.513786792755127,0.16732676327228546,0.37294116616249084
0.02324267476797104,0.5181249976158142,0.16692623496055603,0.388823539018631
0.023318754509091377,0.5089338421821594,0.17100439965724945,0.338823527097702
0.02180861309170723,0.5159926414489746,0.16204892098903656,0.3602941036224365
0.022802427411079407,0.5109558701515198,0.16548171639442444,0.3700000047683716
0.023253779858350754,0.5054411888122559,0.16097727417945862,0.361176460981369
0.02243240363895893,0.5137132406234741,0.16716772317886353,0.3597058951854706
0.02275756560266018,0.511691153049469,0.1713264435529709,0.3741176426410675
